#    1.00000E+02 = size parameter
#    1.33000E+00 = Re(m)
#    1.00000E-03 = Im(m)
#    2.09184E+00 = Qext
#    1.79256E+00 = Qsca
#    3.05348E-01 = Qback
#    8.97747E-01 = g
#       Infinite = Truncation order of the Debye series

#      ang (deg)            S11       S11(p=0)       S11(p=1)            ...
     0.00000E+00    2.73592E+07    2.74307E+07    2.61497E+04    1.82438E-09    1.40228E-01    4.50082E+02    7.22871E-01
     2.50000E-01    2.60304E+07    2.60910E+07    2.61469E+04    1.64462E-09    1.41951E-01    4.05813E+02    6.55055E-01
     5.00000E-01    2.23631E+07    2.23939E+07    2.61385E+04    1.19593E-09    1.47118E-01    2.93780E+02    5.80180E-01
     7.50000E-01    1.72084E+07    1.71983E+07    2.61244E+04    6.96164E-10    1.55577E-01    1.64614E+02    7.64881E-01
     1.00000E+00    1.16718E+07    1.16201E+07    2.61048E+04    3.63056E-10    1.66711E-01    7.08404E+01    1.35371E+00
     1.25000E+00    6.77369E+06    6.68957E+06    2.60796E+04    2.93317E-10    1.79216E-01    3.94596E+01    2.18299E+00
     1.50000E+00    3.17500E+06    3.07472E+06    2.60488E+04    4.21969E-10    1.91202E-01    6.09843E+01    2.83234E+00
     1.75000E+00    1.05857E+06    9.60870E+05    2.60125E+04    5.81879E-10    2.00653E-01    1.00128E+02    2.89442E+00
     2.00000E+00    1.88175E+05    1.09688E+05    2.59707E+04    6.19239E-10    2.06052E-01    1.19961E+02    2.26999E+00
     2.25000E+00    9.36838E+04    4.54875E+04    2.59235E+04    4.88037E-10    2.06852E-01    1.03804E+02    1.26548E+00
     2.50000E+00    2.90366E+05    2.76188E+05    2.58709E+04    2.65579E-10    2.03572E-01    6.19008E+01    4.10292E-01
     2.75000E+00    4.42655E+05    4.58859E+05    2.58129E+04    8.65799E-11    1.97495E-01    2.05759E+01    1.16321E-01
     3.00000E+00    4.23346E+05    4.60294E+05    2.57496E+04    4.66080E-11    1.90164E-01    2.78691E+00    4.19118E-01
     3.25000E+00    2.72882E+05    3.17155E+05    2.56811E+04    1.41530E-10    1.82949E-01    1.34829E+01    9.80827E-01
     3.50000E+00    1.04343E+05    1.41369E+05    2.56074E+04    2.79945E-10    1.76852E-01    3.86392E+01    1.34500E+00
     3.75000E+00    1.15840E+04    2.83433E+04    2.55285E+04    3.53455E-10    1.72542E-01    5.69657E+01    1.25429E+00
     4.00000E+00    2.10148E+04    8.50435E+03    2.54447E+04    3.11813E-10    1.70476E-01    5.50481E+01    8.05305E-01
     4.25000E+00    9.58433E+04    5.09555E+04    2.53558E+04    1.91147E-10    1.70925E-01    3.53903E+01    3.42600E-01
     4.50000E+00    1.73764E+05    1.00155E+05    2.52621E+04    8.00256E-11    1.73875E-01    1.27109E+01    1.86653E-01
     4.75000E+00    2.07815E+05    1.15413E+05    2.51636E+04    5.23113E-11    1.78873E-01    2.29031E+00    4.03982E-01
     5.00000E+00    1.87239E+05    9.02837E+04    2.50604E+04    1.16422E-10    1.84988E-01    9.21813E+00    7.82512E-01
     5.25000E+00    1.32526E+05    4.64497E+04    2.49526E+04    2.15177E-10    1.90984E-01    2.58883E+01    1.01354E+00
     5.50000E+00    7.46951E+04    1.25421E+04    2.48402E+04    2.72140E-10    1.95650E-01    3.86607E+01    9.29490E-01
     5.75000E+00    3.50485E+04    4.35913E+03    2.47235E+04    2.47850E-10    1.98151E-01    3.81249E+01    6.16556E-01
     6.00000E+00    1.69657E+04    1.79931E+04    2.46024E+04    1.65130E-10    1.98219E-01    2.53881E+01    3.27843E-01
     6.25000E+00    1.11389E+04    3.69018E+04    2.44771E+04    8.77020E-11    1.96120E-01    1.02937E+01    2.77816E-01
     6.50000E+00    7.12985E+03    4.52832E+04    2.43476E+04    7.09194E-11    1.92451E-01    3.55820E+00    4.82272E-01
     6.75000E+00    1.98981E+03    3.79889E+04    2.42142E+04    1.22148E-10    1.87917E-01    8.97295E+00    7.61871E-01
     7.00000E+00    8.03192E+02    2.14973E+04    2.40769E+04    1.98768E-10    1.83194E-01    2.12634E+01    8.94522E-01
     7.25000E+00    1.05046E+04    7.22627E+03    2.39358E+04    2.42711E-10    1.78914E-01    3.06793E+01    7.89345E-01
     7.50000E+00    3.26378E+04    3.02959E+03    2.37910E+04    2.23989E-10    1.75679E-01    3.04548E+01    5.47133E-01
     7.75000E+00    6.05295E+04    8.70709E+03    2.36427E+04    1.60877E-10    1.74033E-01    2.14966E+01    3.68594E-01
     8.00000E+00    8.25700E+04    1.76505E+04    2.34909E+04    1.03446E-10    1.74345E-01    1.10949E+01    3.91561E-01
     8.25000E+00    8.89669E+04    2.23943E+04    2.33358E+04    9.47275E-11    1.76651E-01    7.04452E+00    5.87969E-01
     8.50000E+00    7.73257E+04    1.97212E+04    2.31776E+04    1.39354E-10    1.80573E-01    1.18230E+01    7.96695E-01
     8.75000E+00    5.36609E+04    1.20481E+04    2.30162E+04    2.02330E-10    1.85379E-01    2.11188E+01    8.58010E-01
     9.00000E+00    2.86647E+04    4.82670E+03    2.28520E+04    2.37157E-10    1.90177E-01    2.75140E+01    7.38432E-01
     9.25000E+00    1.19419E+04    2.36089E+03    2.26848E+04    2.20935E-10    1.94151E-01    2.62634E+01    5.49055E-01
     9.50000E+00    7.71177E+03    5.08677E+03    2.25150E+04    1.70117E-10    1.96724E-01    1.87349E+01    4.49465E-01
     9.75000E+00    1.40372E+04    9.89097E+03    2.23426E+04    1.26236E-10    1.97610E-01    1.10615E+01    5.19421E-01
     1.00000E+01    2.52375E+04    1.27700E+04    2.21677E+04    1.23723E-10    1.96764E-01    9.25528E+00    7.00889E-01
     1.02500E+01    3.54230E+04    1.16799E+04    2.19905E+04    1.64593E-10    1.94317E-01    1.46182E+01    8.51902E-01
     1.05000E+01    4.09773E+04    7.62716E+03    2.18111E+04    2.18500E-10    1.90557E-01    2.28924E+01    8.63429E-01
     1.07500E+01    4.10390E+04    3.52969E+03    2.16296E+04    2.46915E-10    1.85959E-01    2.76498E+01    7.43584E-01
     1.10000E+01    3.65188E+04    1.94388E+03    2.14461E+04    2.32304E-10    1.81198E-01    2.52262E+01    6.04563E-01
     1.12500E+01    2.89127E+04    3.36426E+03    2.12607E+04    1.90304E-10    1.77085E-01    1.74452E+01    5.67994E-01
     1.15000E+01    1.98212E+04    6.16947E+03    2.10736E+04    1.56557E-10    1.74410E-01    1.01535E+01    6.67992E-01
     1.17500E+01    1.11535E+04    8.02262E+03    2.08849E+04    1.59144E-10    1.73741E-01    8.77492E+00    8.28781E-01
     1.20000E+01    5.29912E+03    7.57198E+03    2.06947E+04    1.97850E-10    1.75265E-01    1.42738E+01    9.30653E-01
     1.22500E+01    4.60978E+03    5.24931E+03    2.05031E+04    2.45487E-10    1.78753E-01    2.25124E+01    9.07347E-01
     1.25000E+01    1.02184E+04    2.73857E+03    2.03102E+04    2.69413E-10    1.83633E-01    2.73896E+01    7.95941E-01
     1.27500E+01    2.09463E+04    1.65212E+03    2.01161E+04    2.56275E-10    1.89140E-01    2.53447E+01    7.02100E-01
     1.30000E+01    3.32132E+04    2.42483E+03    1.99210E+04    2.21304E-10    1.94451E-01    1.78853E+01    7.12590E-01
     1.32500E+01    4.23168E+04    4.15874E+03    1.97249E+04    1.95772E-10    1.98780E-01    1.03526E+01    8.27262E-01
     1.35000E+01    4.45603E+04    5.40710E+03    1.95280E+04    2.02852E-10    2.01441E-01    7.95057E+00    9.63613E-01
     1.37500E+01    3.90952E+04    5.24235E+03    1.93303E+04    2.40465E-10    2.01922E-01    1.20201E+01    1.02666E+00
     1.40000E+01    2.84235E+04    3.83671E+03    1.91321E+04    2.83766E-10    1.99988E-01    1.92448E+01    9.85272E-01
     1.42500E+01    1.72426E+04    2.21267E+03    1.89332E+04    3.04686E-10    1.95793E-01    2.42357E+01    8.93754E-01
     1.45000E+01    1.02282E+04    1.43340E+03    1.87340E+04    2.93224E-10    1.89931E-01    2.34754E+01    8.44275E-01
     1.47500E+01    9.91006E+03    1.85857E+03    1.85344E+04    2.64381E-10    1.83376E-01    1.77147E+01    8.91341E-01
     1.50000E+01    1.56821E+04    2.97330E+03    1.83345E+04    2.45999E-10    1.77301E-01    1.11780E+01    1.01001E+00
     1.52500E+01    2.43300E+04    3.84399E+03    1.81345E+04    2.57313E-10    1.72825E-01    8.32986E+00    1.11961E+00
     1.55000E+01    3.16762E+04    3.81442E+03    1.79345E+04    2.94703E-10    1.70781E-01    1.06753E+01    1.15084E+00
     1.57500E+01    3.44582E+04    2.93241E+03    1.77344E+04    3.35168E-10    1.71569E-01    1.59009E+01    1.10074E+00
     1.60000E+01    3.15842E+04    1.84001E+03    1.75345E+04    3.54343E-10    1.75122E-01    1.98269E+01    1.03199E+00
     1.62500E+01    2.43320E+04    1.26177E+03    1.73347E+04    3.44977E-10    1.80945E-01    1.95683E+01    1.01982E+00
     1.65000E+01    1.55864E+04    1.49010E+03    1.71352E+04    3.21907E-10    1.88198E-01    1.55265E+01    1.09136E+00
     1.67500E+01    8.57464E+03    2.22611E+03    1.69360E+04    3.10168E-10    1.95793E-01    1.08338E+01    1.20625E+00
     1.70000E+01    5.64123E+03    2.84951E+03    1.67373E+04    3.25745E-10    2.02524E-01    8.83769E+00    1.29209E+00
     1.72500E+01    7.47093E+03    2.88481E+03    1.65391E+04    3.63733E-10    2.07234E-01    1.06092E+01    1.30389E+00
     1.75000E+01    1.29477E+04    2.31871E+03    1.63414E+04    4.02671E-10    2.09032E-01    1.43211E+01    1.25873E+00
     1.77500E+01    1.96363E+04    1.56270E+03    1.61443E+04    4.21284E-10    2.07493E-01    1.68325E+01    1.21911E+00
     1.80000E+01    2.47146E+04    1.12264E+03    1.59479E+04    4.14621E-10    2.02788E-01    1.61539E+01    1.24066E+00
     1.82500E+01    2.60588E+04    1.23543E+03    1.57523E+04    3.97371E-10    1.95679E-01    1.28858E+01    1.32777E+00
     1.85000E+01    2.31040E+04    1.72952E+03    1.55575E+04    3.92193E-10    1.87370E-01    9.60493E+00    1.43241E+00
     1.87500E+01    1.71241E+04    2.18461E+03    1.53635E+04    4.12325E-10    1.79263E-01    8.77696E+00    1.49498E+00
     1.90000E+01    1.07493E+04    2.24974E+03    1.51705E+04    4.51797E-10    1.72701E-01    1.08614E+01    1.49274E+00
     1.92500E+01    6.85024E+03    1.88226E+03    1.49785E+04    4.90478E-10    1.68754E-01    1.40450E+01    1.45649E+00
     1.95000E+01    7.23753E+03    1.34827E+03    1.47874E+04    5.09744E-10    1.68082E-01    1.57374E+01    1.44360E+00
     1.97500E+01    1.17773E+04    1.00706E+03    1.45975E+04    5.06595E-10    1.70860E-01    1.46092E+01    1.49092E+00
     2.00000E+01    1.83868E+04    1.05070E+03    1.44087E+04    4.95560E-10    1.76753E-01    1.15884E+01    1.58628E+00
     2.02500E+01    2.39726E+04    1.38497E+03    1.42210E+04    4.97233E-10    1.84943E-01    9.08151E+00    1.68047E+00
     2.05000E+01    2.58971E+04    1.72172E+03    1.40346E+04    5.22491E-10    1.94217E-01    9.07184E+00    1.72838E+00
     2.07500E+01    2.32612E+04    1.79845E+03    1.38494E+04    5.64479E-10    2.03138E-01    1.15875E+01    1.72487E+00
     2.10000E+01    1.73531E+04    1.55974E+03    1.36654E+04    6.04259E-10    2.10286E-01    1.47090E+01    1.70695E+00
     2.12500E+01    1.10163E+04    1.17729E+03    1.34828E+04    6.25521E-10    2.14522E-01    1.60791E+01    1.72199E+00
     2.15000E+01    7.24409E+03    9.09189E+02    1.33016E+04    6.26942E-10    2.15193E-01    1.47286E+01    1.78911E+00
     2.17500E+01    7.70447E+03    9.11313E+02    1.31217E+04    6.22867E-10    2.12234E-01    1.18141E+01    1.88507E+00
     2.20000E+01    1.19402E+04    1.13723E+03    1.29433E+04    6.32057E-10    2.06145E-01    9.71889E+00    1.96484E+00
     2.22500E+01    1.76405E+04    1.38852E+03    1.27662E+04    6.63332E-10    1.97868E-01    1.02226E+01    1.99887E+00
     2.25000E+01    2.18304E+04    1.46707E+03    1.25907E+04    7.09102E-10    1.88625E-01    1.31430E+01    1.99628E+00
     2.27500E+01    2.23647E+04    1.31370E+03    1.24166E+04    7.51530E-10    1.79747E-01    1.64740E+01    1.99595E+00
     2.30000E+01    1.89680E+04    1.03753E+03    1.22440E+04    7.76361E-10    1.72520E-01    1.79012E+01    2.03416E+00
     2.32500E+01    1.33164E+04    8.24998E+02    1.20730E+04    7.83721E-10    1.68028E-01    1.65408E+01    2.11567E+00
     2.35000E+01    8.14470E+03    8.02647E+02    1.19035E+04    7.87745E-10    1.67006E-01    1.35975E+01    2.21136E+00
     2.37500E+01    5.85664E+03    9.53676E+02    1.17356E+04    8.05536E-10    1.69713E-01    1.14636E+01    2.28310E+00
     2.40000E+01    7.34281E+03    1.14186E+03    1.15693E+04    8.44104E-10    1.75857E-01    1.19483E+01    2.31459E+00
     2.42500E+01    1.15888E+04    1.21695E+03    1.14045E+04    8.95260E-10    1.84628E-01    1.49586E+01    2.32326E+00
     2.45000E+01    1.62424E+04    1.12095E+03    1.12414E+04    9.42196E-10    1.94820E-01    1.85917E+01    2.34451E+00
     2.47500E+01    1.88284E+04    9.20937E+02    1.10799E+04    9.72506E-10    2.05026E-01    2.05401E+01    2.40229E+00
     2.50000E+01    1.79887E+04    7.51628E+02    1.09200E+04    9.87582E-10    2.13861E-01    1.97542E+01    2.49034E+00
     2.52500E+01    1.41283E+04    7.15587E+02    1.07618E+04    1.00132E-09    2.20138E-01    1.71505E+01    2.57864E+00
     2.55000E+01    9.16175E+03    8.14158E+02    1.06052E+04    1.02929E-09    2.23004E-01    1.48880E+01    2.63876E+00
     2.57500E+01    5.50859E+03    9.54862E+02    1.04502E+04    1.07692E-09    2.22030E-01    1.47906E+01    2.66686E+00
     2.60000E+01    4.85843E+03    1.02371E+03    1.02969E+04    1.13552E-09    2.17259E-01    1.70844E+01    2.68584E+00
     2.62500E+01    7.33347E+03    9.66551E+02    1.01453E+04    1.18927E-09    2.09235E-01    2.03368E+01    2.72591E+00
     2.65000E+01    1.14646E+04    8.22018E+02    9.99533E+03    1.22745E-09    1.98975E-01    2.25712E+01    2.80013E+00
     2.67500E+01    1.49802E+04    6.86974E+02    9.84702E+03    1.25255E-09    1.87866E-01    2.26892E+01    2.89469E+00
     2.70000E+01    1.59916E+04    6.44196E+02    9.70038E+03    1.27820E-09    1.77485E-01    2.11603E+01    2.98117E+00
     2.72500E+01    1.39618E+04    7.05741E+02    9.55540E+03    1.31857E-09    1.69360E-01    1.95407E+01    3.03981E+00
     2.75000E+01    9.95703E+03    8.10211E+02    9.41208E+03    1.37764E-09    1.64728E-01    1.92588E+01    3.07467E+00
     2.77500E+01    6.05979E+03    8.71441E+02    9.27043E+03    1.44636E-09    1.64348E-01    2.06079E+01    3.10901E+00
     2.80000E+01    4.25640E+03    8.40526E+02    9.13043E+03    1.50985E-09    1.68397E-01    2.26655E+01    3.16550E+00
     2.82500E+01    5.38953E+03    7.36921E+02    8.99209E+03    1.55893E-09    1.76461E-01    2.41164E+01    3.24794E+00
     2.85000E+01    8.72857E+03    6.29451E+02    8.85540E+03    1.59707E-09    1.87595E-01    2.42892E+01    3.33924E+00
     2.87500E+01    1.23818E+04    5.84468E+02    8.72036E+03    1.63759E-09    2.00431E-01    2.36030E+01    3.41630E+00
     2.90000E+01    1.43245E+04    6.19850E+02    8.58695E+03    1.69336E-09    2.13334E-01    2.31264E+01    3.46913E+00
     2.92500E+01    1.34869E+04    6.96369E+02    8.45517E+03    1.76708E-09    2.24594E-01    2.36520E+01    3.50854E+00
     2.95000E+01    1.03161E+04    7.49451E+02    8.32502E+03    1.84940E-09    2.32656E-01    2.50439E+01    3.55663E+00
     2.97500E+01    6.51129E+03    7.36048E+02    8.19649E+03    1.92639E-09    2.36352E-01    2.63695E+01    3.62867E+00
     3.00000E+01    4.08251E+03    6.62870E+02    8.06957E+03    1.99028E-09    2.35104E-01    2.66902E+01    3.72105E+00
     3.02500E+01    4.25187E+03    5.77841E+02    7.94425E+03    2.04540E-09    2.29022E-01    2.58660E+01    3.81496E+00
     3.05000E+01    6.79965E+03    5.33608E+02    7.82052E+03    2.10473E-09    2.18893E-01    2.47241E+01    3.89192E+00
     3.07500E+01    1.02101E+04    5.50624E+02    7.69837E+03    2.17994E-09    2.06054E-01    2.44434E+01    3.94820E+00
     3.10000E+01    1.25288E+04    6.05439E+02    7.57780E+03    2.27256E-09    1.92193E-01    2.56257E+01    3.99681E+00
     3.12500E+01    1.24492E+04    6.50345E+02    7.45878E+03    2.37306E-09    1.79123E-01    2.77718E+01    4.05597E+00
     3.15000E+01    1.00238E+04    6.48312E+02    7.34132E+03    2.46841E-09    1.68563E-01    2.95849E+01    4.13420E+00
     3.17500E+01    6.60792E+03    5.97823E+02    7.22539E+03    2.55218E-09    1.61944E-01    2.98943E+01    4.22408E+00
     3.20000E+01    4.07696E+03    5.31194E+02    7.11099E+03    2.62943E-09    1.60236E-01    2.85244E+01    4.30928E+00
     3.22500E+01    3.76599E+03    4.89613E+02    6.99811E+03    2.71281E-09    1.63820E-01    2.64622E+01    4.37845E+00
     3.25000E+01    5.73061E+03    4.93952E+02    6.88673E+03    2.81284E-09    1.72413E-01    2.51922E+01    4.43440E+00
     3.27500E+01    8.74177E+03    5.31878E+02    6.77684E+03    2.93001E-09    1.85078E-01    2.56698E+01    4.49137E+00
     3.30000E+01    1.10068E+04    5.68896E+02    6.66843E+03    3.05469E-09    2.00335E-01    2.76652E+01    4.56304E+00
     3.32500E+01    1.11970E+04    5.73868E+02    6.56149E+03    3.17475E-09    2.16359E-01    2.99337E+01    4.65150E+00
     3.35000E+01    9.19334E+03    5.40255E+02    6.45599E+03    3.28499E-09    2.31223E-01    3.10759E+01    4.74583E+00
     3.37500E+01    6.12905E+03    4.88767E+02    6.35194E+03    3.39115E-09    2.43142E-01    3.04704E+01    4.83115E+00
     3.40000E+01    3.71691E+03    4.51013E+02    6.24931E+03    3.50550E-09    2.50678E-01    2.86389E+01    4.90032E+00
     3.42500E+01    3.25776E+03    4.46880E+02    6.14809E+03    3.63749E-09    2.52888E-01    2.68248E+01    4.95886E+00
     3.45000E+01    4.90498E+03    4.71703E+02    6.04827E+03    3.78669E-09    2.49429E-01    2.61261E+01    5.01968E+00
     3.47500E+01    7.60304E+03    5.01324E+02    5.94984E+03    3.94344E-09    2.40607E-01    2.68020E+01    5.09232E+00
     3.50000E+01    9.72278E+03    5.10184E+02    5.85277E+03    4.09651E-09    2.27373E-01    2.82058E+01    5.17567E+00
     3.52500E+01    1.00128E+04    4.89009E+02    5.75706E+03    4.24187E-09    2.11247E-01    2.93246E+01    5.25982E+00
     3.55000E+01    8.31032E+03    4.49969E+02    5.66270E+03    4.38585E-09    1.94163E-01    2.94911E+01    5.33484E+00
     3.57500E+01    5.60453E+03    4.16707E+02    5.56966E+03    4.54032E-09    1.78231E-01    2.87591E+01    5.39915E+00
     3.60000E+01    3.43092E+03    4.07235E+02    5.47793E+03    4.71374E-09    1.65472E-01    2.77300E+01    5.46049E+00
     3.62500E+01    2.96448E+03    4.21990E+02    5.38751E+03    4.90486E-09    1.57551E-01    2.70303E+01    5.52922E+00
     3.65000E+01    4.34825E+03    4.44838E+02    5.29836E+03    5.10408E-09    1.55575E-01    2.68676E+01    5.60962E+00
     3.67500E+01    6.64320E+03    4.55368E+02    5.21049E+03    5.30106E-09    1.59963E-01    2.69783E+01    5.69635E+00
     3.70000E+01    8.41238E+03    4.43198E+02    5.12388E+03    5.49287E-09    1.70408E-01    2.69478E+01    5.77875E+00
     3.72500E+01    8.57923E+03    4.14338E+02    5.03851E+03    5.68638E-09    1.85905E-01    2.66016E+01    5.84916E+00
     3.75000E+01    7.04799E+03    3.85858E+02    4.95437E+03    5.89307E-09    2.04847E-01    2.61382E+01    5.90851E+00
     3.77500E+01    4.72779E+03    3.73390E+02    4.87144E+03    6.12045E-09    2.25183E-01    2.59141E+01    5.96493E+00
     3.80000E+01    2.96374E+03    3.80544E+02    4.78971E+03    6.36657E-09    2.44641E-01    2.60807E+01    6.02693E+00
     3.82500E+01    2.72876E+03    3.97330E+02    4.70917E+03    6.62196E-09    2.60990E-01    2.63929E+01    6.09688E+00
     3.85000E+01    4.06108E+03    4.07981E+02    4.62980E+03    6.87718E-09    2.72322E-01    2.63640E+01    6.16990E+00
     3.87500E+01    6.07274E+03    4.02138E+02    4.55159E+03    7.13037E-09    2.77297E-01    2.56547E+01    6.23869E+00
     3.90000E+01    7.50543E+03    3.81512E+02    4.47452E+03    7.38886E-09    2.75300E-01    2.43883E+01    6.29985E+00
     3.92500E+01    7.48646E+03    3.57829E+02    4.39858E+03    7.66374E-09    2.66513E-01    2.31283E+01    6.35652E+00
     3.95000E+01    6.03002E+03    3.44103E+02    4.32375E+03    7.96165E-09    2.51869E-01    2.25095E+01    6.41534E+00
     3.97500E+01    3.99563E+03    3.45683E+02    4.25003E+03    8.28007E-09    2.32950E-01    2.27823E+01    6.48055E+00
     4.00000E+01    2.54820E+03    3.57178E+02    4.17740E+03    8.60971E-09    2.11811E-01    2.36048E+01    6.55013E+00
